# Elastic modulus data for Cu-Cr-Zr
# Temp. (C), Elastic Modulus (Pa)
20,128000000000.0
50,127000000000.0
100,127000000000.0
150,125000000000.0
200,123000000000.0
250,121000000000.0
300,118000000000.0
350,116000000000.0
400,113000000000.0
450,110000000000.0
500,106000000000.0
550,100000000000.0
600,95000000000.0
650,90000000000.0
700,86000000000.0
